#t   #theta   #omega   #xddot    #yddot
0.01 3.09155 -0.00766282 -0.736006 -9.79774
0.02 3.09144 -0.0153374 -0.737696 -9.79774
0.03 3.09125 -0.0230354 -0.740516 -9.79774
0.04 3.09098 -0.0307687 -0.744469 -9.79774
0.05 3.09063 -0.0385491 -0.749562 -9.79774
0.06 3.09021 -0.0463886 -0.755802 -9.79774
0.07 3.0897 -0.054299 -0.763199 -9.79774
0.08 3.08912 -0.0622926 -0.771765 -9.79774
0.09 3.08846 -0.0703816 -0.781511 -9.79774
0.1 3.08771 -0.0785783 -0.792454 -9.79774
0.11 3.08689 -0.0868952 -0.804609 -9.79774
0.12 3.08597 -0.0953452 -0.817995 -9.79774
0.13 3.08498 -0.103941 -0.832633 -9.79774
0.14 3.0839 -0.112696 -0.848544 -9.79774
0.15 3.08272 -0.121624 -0.865753 -9.79774
0.16 3.08146 -0.130737 -0.884285 -9.79774
0.17 3.08011 -0.140051 -0.904169 -9.79774
0.18 3.07866 -0.149579 -0.925434 -9.79774
0.19 3.07712 -0.159336 -0.948114 -9.79774
0.2 3.07547 -0.169336 -0.972241 -9.79774
0.21 3.07373 -0.179596 -0.997853 -9.79774
0.22 3.07188 -0.19013 -1.02499 -9.79774
0.23 3.06993 -0.200955 -1.05369 -9.79774
0.24 3.06786 -0.212088 -1.08399 -9.79774
0.25 3.06568 -0.223544 -1.11595 -9.79774
0.26 3.06339 -0.235342 -1.14961 -9.79774
0.27 3.06097 -0.2475 -1.18502 -9.79774
0.28 3.05844 -0.260037 -1.22223 -9.79774
0.29 3.05577 -0.27297 -1.2613 -9.79774
0.3 3.05298 -0.28632 -1.30229 -9.79774
0.31 3.05004 -0.300108 -1.34525 -9.79774
0.32 3.04697 -0.314354 -1.39026 -9.79774
0.33 3.04376 -0.329079 -1.43738 -9.79774
0.34 3.04039 -0.344306 -1.48667 -9.79774
0.35 3.03687 -0.360059 -1.53821 -9.79774
0.36 3.03319 -0.376361 -1.59208 -9.79774
0.37 3.02934 -0.393236 -1.64835 -9.79774
0.38 3.02532 -0.41071 -1.70711 -9.79774
0.39 3.02112 -0.428809 -1.76844 -9.79774
0.4 3.01674 -0.447562 -1.83242 -9.79774
0.41 3.01217 -0.466994 -1.89916 -9.79774
0.42 3.0074 -0.487137 -1.96874 -9.79774
0.43 3.00242 -0.50802 -2.04127 -9.79774
0.44 2.99724 -0.529674 -2.11684 -9.79774
0.45 2.99183 -0.552132 -2.19557 -9.79774
0.46 2.98619 -0.575427 -2.27755 -9.79774
0.47 2.98032 -0.599593 -2.36291 -9.79774
0.48 2.9742 -0.624666 -2.45176 -9.79774
0.49 2.96782 -0.650684 -2.54422 -9.79774
0.5 2.96118 -0.677684 -2.64042 -9.79774
0.51 2.95426 -0.705706 -2.74047 -9.79774
0.52 2.94706 -0.734791 -2.84452 -9.79774
0.53 2.93956 -0.764981 -2.95269 -9.79774
0.54 2.93176 -0.79632 -3.06512 -9.79774
0.55 2.92363 -0.828853 -3.18195 -9.79774
0.56 2.91518 -0.862626 -3.30332 -9.79774
0.57 2.90638 -0.897688 -3.42939 -9.79774
0.58 2.89722 -0.934088 -3.56029 -9.79774
0.59 2.88769 -0.971878 -3.69617 -9.79774
0.6 2.87778 -1.01111 -3.83719 -9.79774
0.61 2.86746 -1.05184 -3.9835 -9.79774
0.62 2.85673 -1.09412 -4.13524 -9.79774
0.63 2.84557 -1.13801 -4.29257 -9.79774
0.64 2.83397 -1.18357 -4.45564 -9.79774
0.65 2.8219 -1.23085 -4.62459 -9.79774
0.66 2.80934 -1.27993 -4.79957 -9.79774
0.67 2.79629 -1.33087 -4.98072 -9.79774
0.68 2.78272 -1.38372 -5.16817 -9.79774
0.69 2.76861 -1.43856 -5.36205 -9.79774
0.7 2.75394 -1.49545 -5.56247 -9.79774
0.71 2.7387 -1.55447 -5.76954 -9.79774
0.72 2.72285 -1.61567 -5.98334 -9.79774
0.73 2.70637 -1.67914 -6.20397 -9.79774
0.74 2.68926 -1.74495 -6.43146 -9.79774
0.75 2.67147 -1.81316 -6.66587 -9.79774
0.76 2.65298 -1.88384 -6.90718 -9.79774
0.77 2.63378 -1.95708 -7.15539 -9.79774
0.78 2.61383 -2.03294 -7.41045 -9.79774
0.79 2.59311 -2.11149 -7.67225 -9.79774
0.8 2.5716 -2.1928 -7.94065 -9.79774
0.81 2.54925 -2.27694 -8.21549 -9.79774
0.82 2.52605 -2.36398 -8.49651 -9.79774
0.83 2.50196 -2.45397 -8.7834 -9.79774
0.84 2.47696 -2.54698 -9.0758 -9.79774
0.85 2.45101 -2.64307 -9.37326 -9.79774
0.86 2.42409 -2.74228 -9.67524 -9.79774
0.87 2.39615 -2.84465 -9.98111 -9.79774
0.88 2.36718 -2.95023 -10.2901 -9.79774
0.89 2.33714 -3.05904 -10.6015 -9.79774
0.9 2.30599 -3.17109 -10.9141 -9.79774
0.91 2.27371 -3.28641 -11.227 -9.79774
0.92 2.24025 -3.40499 -11.5389 -9.79774
0.93 2.20559 -3.5268 -11.8484 -9.79774
0.94 2.1697 -3.65182 -12.1539 -9.79774
0.95 2.13255 -3.77999 -12.4536 -9.79774
0.96 2.09409 -3.91124 -12.7458 -9.79774
0.97 2.05431 -4.04549 -13.0282 -9.79774
0.98 2.01318 -4.18262 -13.2985 -9.79774
0.99 1.97065 -4.32249 -13.5542 -9.79774
1 1.92672 -4.46494 -13.7928 -9.79774
1.01 1.88135 -4.60977 -14.0111 -9.79774
1.02 1.83451 -4.75676 -14.2063 -9.79774
1.03 1.7862 -4.90564 -14.3749 -9.79774
1.04 1.7364 -5.05613 -14.5137 -9.79774
1.05 1.68508 -5.20789 -14.619 -9.79774
1.06 1.63224 -5.36056 -14.6872 -9.79774
1.07 1.57786 -5.51374 -14.7146 -9.79774
1.08 1.52196 -5.66696 -14.6975 -9.79774
1.09 1.46453 -5.81976 -14.632 -9.79774
1.1 1.40557 -5.97162 -14.5146 -9.79774
1.11 1.3451 -6.12196 -14.3418 -9.79774
1.12 1.28314 -6.2702 -14.1104 -9.79774
1.13 1.2197 -6.41571 -13.8173 -9.79774
1.14 1.15483 -6.55784 -13.4602 -9.79774
1.15 1.08856 -6.6959 -13.0369 -9.79774
1.16 1.02093 -6.82921 -12.5459 -9.79774
1.17 0.951995 -6.95704 -11.9865 -9.79774
1.18 0.881811 -7.07869 -11.3584 -9.79774
1.19 0.810444 -7.19344 -10.6624 -9.79774
1.2 0.737967 -7.30059 -9.90004 -9.79774
1.21 0.66446 -7.39946 -9.07377 -9.79774
1.22 0.590008 -7.48941 -8.18695 -9.79774
1.23 0.514703 -7.56983 -7.24385 -9.79774
1.24 0.438645 -7.64015 -6.24965 -9.79774
1.25 0.361936 -7.69987 -5.21036 -9.79774
1.26 0.284684 -7.74857 -4.13277 -9.79774
1.27 0.207002 -7.78587 -3.02433 -9.79774
1.28 0.129006 -7.81149 -1.89306 -9.79774
1.29 0.0508119 -7.82526 -0.747376 -9.79774
1.3 -0.0274596 -7.82704 0.404017 -9.79774
1.31 -0.105689 -7.81685 1.55232 -9.79774
1.32 -0.183757 -7.79475 2.68879 -9.79774
1.33 -0.261545 -7.7609 3.8049 -9.79774
1.34 -0.338937 -7.71558 4.89251 -9.79774
1.35 -0.415819 -7.6591 5.94397 -9.79774
1.36 -0.492083 -7.59189 6.95229 -9.79774
1.37 -0.567623 -7.51443 7.91121 -9.79774
1.38 -0.642339 -7.42727 8.81532 -9.79774
1.39 -0.716138 -7.33099 9.66005 -9.79774
1.4 -0.788931 -7.22623 10.4418 -9.79774
1.41 -0.860636 -7.11368 11.1578 -9.79774
1.42 -0.931181 -6.99402 11.8062 -9.79774
1.43 -1.0005 -6.86795 12.3862 -9.79774
1.44 -1.06852 -6.73621 12.8975 -9.79774
1.45 -1.1352 -6.59949 13.3409 -9.79774
1.46 -1.2005 -6.4585 13.7176 -9.79774
1.47 -1.26436 -6.31393 14.0295 -9.79774
1.48 -1.32677 -6.16644 14.279 -9.79774
1.49 -1.38768 -6.01666 14.469 -9.79774
1.5 -1.44709 -5.8652 14.6026 -9.79774
1.51 -1.50498 -5.71262 14.6831 -9.79774
1.52 -1.56134 -5.55947 14.7143 -9.79774
1.53 -1.61617 -5.40623 14.6999 -9.79774
1.54 -1.66947 -5.25337 14.6434 -9.79774
1.55 -1.72124 -5.1013 14.5488 -9.79774
1.56 -1.7715 -4.95039 14.4196 -9.79774
1.57 -1.82025 -4.80099 14.2595 -9.79774
1.58 -1.86753 -4.65341 14.0719 -9.79774
1.59 -1.91333 -4.50791 13.8602 -9.79774
1.6 -1.95769 -4.36473 13.6273 -9.79774
1.61 -2.00063 -4.22407 13.3764 -9.79774
1.62 -2.04218 -4.08611 13.1102 -9.79774
1.63 -2.08236 -3.95099 12.8312 -9.79774
1.64 -2.12121 -3.81883 12.5417 -9.79774
1.65 -2.15875 -3.68973 12.244 -9.79774
1.66 -2.19502 -3.56377 11.94 -9.79774
1.67 -2.23004 -3.441 11.6316 -9.79774
1.68 -2.26385 -3.32145 11.3203 -9.79774
1.69 -2.29648 -3.20516 11.0075 -9.79774
1.7 -2.32796 -3.09213 10.6947 -9.79774
1.71 -2.35833 -2.98235 10.3828 -9.79774
1.72 -2.38762 -2.87582 10.073 -9.79774
1.73 -2.41586 -2.77249 9.76613 -9.79774
1.74 -2.44308 -2.67234 9.46292 -9.79774
1.75 -2.46932 -2.57533 9.16405 -9.79774
1.76 -2.4946 -2.48141 8.87009 -9.79774
1.77 -2.51895 -2.39052 8.58151 -9.79774
1.78 -2.54242 -2.3026 8.29871 -9.79774
1.79 -2.56502 -2.21761 8.022 -9.79774
1.8 -2.58678 -2.13546 7.75165 -9.79774
1.81 -2.60773 -2.05609 7.48786 -9.79774
1.82 -2.62791 -1.97944 7.23079 -9.79774
1.83 -2.64733 -1.90543 6.98053 -9.79774
1.84 -2.66603 -1.83399 6.73715 -9.79774
1.85 -2.68402 -1.76504 6.50068 -9.79774
1.86 -2.70134 -1.69853 6.27113 -9.79774
1.87 -2.718 -1.63437 6.04846 -9.79774
1.88 -2.73403 -1.5725 5.83262 -9.79774
1.89 -2.74946 -1.51284 5.62355 -9.79774
1.9 -2.76429 -1.45532 5.42116 -9.79774
1.91 -2.77857 -1.39987 5.22534 -9.79774
1.92 -2.7923 -1.34643 5.03599 -9.79774
1.93 -2.8055 -1.29493 4.85297 -9.79774
1.94 -2.8182 -1.24531 4.67617 -9.79774
1.95 -2.83042 -1.19749 4.50543 -9.79774
1.96 -2.84216 -1.15142 4.34062 -9.79774
1.97 -2.85345 -1.10704 4.18159 -9.79774
1.98 -2.86431 -1.06429 4.0282 -9.79774
1.99 -2.87474 -1.0231 3.88029 -9.79774
2 -2.88477 -0.983431 3.73771 -9.79774
2.01 -2.89441 -0.945216 3.60031 -9.79774
2.02 -2.90368 -0.908407 3.46793 -9.79774
2.03 -2.91259 -0.872951 3.34044 -9.79774
2.04 -2.92114 -0.838798 3.21768 -9.79774
2.05 -2.92937 -0.8059 3.09951 -9.79774
2.06 -2.93727 -0.774209 2.98578 -9.79774
2.07 -2.94486 -0.743681 2.87635 -9.79774
2.08 -2.95214 -0.714271 2.77109 -9.79774
2.09 -2.95914 -0.685936 2.66986 -9.79774
2.1 -2.96587 -0.658635 2.57253 -9.79774
2.11 -2.97232 -0.632329 2.47897 -9.79774
2.12 -2.97852 -0.606977 2.38905 -9.79774
2.13 -2.98446 -0.582544 2.30266 -9.79774
2.14 -2.99017 -0.558993 2.21968 -9.79774
2.15 -2.99565 -0.53629 2.14 -9.79774
2.16 -3.0009 -0.514399 2.0635 -9.79774
2.17 -3.00594 -0.493289 1.99007 -9.79774
2.18 -3.01077 -0.472929 1.91962 -9.79774
2.19 -3.0154 -0.453287 1.85204 -9.79774
2.2 -3.01983 -0.434335 1.78725 -9.79774
2.21 -3.02409 -0.416044 1.72514 -9.79774
2.22 -3.02816 -0.398386 1.66562 -9.79774
2.23 -3.03206 -0.381335 1.60862 -9.79774
2.24 -3.03579 -0.364865 1.55404 -9.79774
2.25 -3.03935 -0.348951 1.50181 -9.79774
2.26 -3.04277 -0.333569 1.45185 -9.79774
2.27 -3.04603 -0.318696 1.4041 -9.79774
2.28 -3.04914 -0.304309 1.35847 -9.79774
2.29 -3.05212 -0.290387 1.3149 -9.79774
2.3 -3.05495 -0.276909 1.27333 -9.79774
2.31 -3.05766 -0.263853 1.23369 -9.79774
2.32 -3.06023 -0.2512 1.19593 -9.79774
2.33 -3.06268 -0.238932 1.15999 -9.79774
2.34 -3.06501 -0.227028 1.12581 -9.79774
2.35 -3.06722 -0.215471 1.09335 -9.79774
2.36 -3.06932 -0.204244 1.06256 -9.79774
2.37 -3.07131 -0.193329 1.03339 -9.79774
2.38 -3.07319 -0.18271 1.00579 -9.79774
2.39 -3.07496 -0.17237 0.979727 -9.79774
2.4 -3.07664 -0.162293 0.955161 -9.79774
2.41 -3.07821 -0.152465 0.932053 -9.79774
2.42 -3.07969 -0.142871 0.910369 -9.79774
2.43 -3.08107 -0.133495 0.890076 -9.79774
2.44 -3.08236 -0.124323 0.871144 -9.79774
2.45 -3.08356 -0.115341 0.853543 -9.79774
2.46 -3.08466 -0.106536 0.837247 -9.79774
2.47 -3.08569 -0.097894 0.822232 -9.79774
2.48 -3.08662 -0.0894018 0.808475 -9.79774
2.49 -3.08747 -0.0810465 0.795954 -9.79774
2.5 -3.08824 -0.0728152 0.784652 -9.79774
2.51 -3.08893 -0.0646954 0.77455 -9.79774
2.52 -3.08954 -0.0566746 0.765634 -9.79774
2.53 -3.09007 -0.0487406 0.757889 -9.79774
2.54 -3.09051 -0.0408812 0.751305 -9.79774
2.55 -3.09088 -0.0330844 0.74587 -9.79774
2.56 -3.09118 -0.0253383 0.741578 -9.79774
2.57 -3.09139 -0.017631 0.738421 -9.79774
2.58 -3.09153 -0.00995061 0.736394 -9.79774
2.59 -3.09159 -0.0022855 0.735495 -9.79774
2.6 -3.09157 0.00537612 0.735722 -9.79774
2.61 -3.09148 0.013046 0.737076 -9.79774
2.62 -3.09131 0.0207358 0.739558 -9.79774
2.63 -3.09107 0.0284574 0.743172 -9.79774
2.64 -3.09074 0.0362225 0.747924 -9.79774
2.65 -3.09034 0.0440431 0.753821 -9.79774
2.66 -3.08986 0.0519311 0.760872 -9.79774
2.67 -3.0893 0.0598986 0.769088 -9.79774
2.68 -3.08866 0.0679579 0.778481 -9.79774
2.69 -3.08794 0.0761211 0.789065 -9.79774
2.7 -3.08714 0.0844009 0.800857 -9.79774
2.71 -3.08626 0.0928099 0.813874 -9.79774
2.72 -3.08528 0.101361 0.828136 -9.79774
2.73 -3.08423 0.110067 0.843665 -9.79774
2.74 -3.08308 0.118942 0.860484 -9.79774
2.75 -3.08185 0.127998 0.878618 -9.79774
2.76 -3.08052 0.137251 0.898096 -9.79774
2.77 -3.0791 0.146714 0.918946 -9.79774
2.78 -3.07759 0.156401 0.9412 -9.79774
2.79 -3.07597 0.166327 0.964892 -9.79774
2.8 -3.07426 0.176508 0.990057 -9.79774
2.81 -3.07244 0.186958 1.01673 -9.79774
2.82 -3.07052 0.197695 1.04496 -9.79774
2.83 -3.06849 0.208734 1.07478 -9.79774
2.84 -3.06634 0.220092 1.10624 -9.79774
2.85 -3.06408 0.231786 1.13939 -9.79774
2.86 -3.06171 0.243835 1.17427 -9.79774
2.87 -3.05921 0.256257 1.21094 -9.79774
2.88 -3.05658 0.269069 1.24945 -9.79774
2.89 -3.05382 0.282293 1.28986 -9.79774
2.9 -3.05093 0.295948 1.33223 -9.79774
2.91 -3.0479 0.310055 1.37662 -9.79774
2.92 -3.04473 0.324635 1.4231 -9.79774
2.93 -3.04141 0.339711 1.47174 -9.79774
2.94 -3.03793 0.355304 1.5226 -9.79774
2.95 -3.0343 0.371439 1.57577 -9.79774
2.96 -3.0305 0.388141 1.63131 -9.79774
2.97 -3.02654 0.405434 1.68932 -9.79774
2.98 -3.02239 0.423344 1.74987 -9.79774
2.99 -3.01807 0.441898 1.81305 -9.79774
3 -3.01355 0.461125 1.87896 -9.79774
3.01 -3.00884 0.481053 1.94768 -9.79774
3.02 -3.00393 0.501712 2.01932 -9.79774
3.03 -2.99881 0.523133 2.09398 -9.79774
3.04 -2.99346 0.545347 2.17175 -9.79774
3.05 -2.9879 0.568389 2.25275 -9.79774
3.06 -2.98209 0.592291 2.33709 -9.79774
3.07 -2.97605 0.61709 2.42489 -9.79774
3.08 -2.96975 0.642822 2.51626 -9.79774
3.09 -2.96319 0.669525 2.61133 -9.79774
3.1 -2.95635 0.697238 2.71022 -9.79774
3.11 -2.94924 0.726002 2.81306 -9.79774
3.12 -2.94183 0.755858 2.91998 -9.79774
3.13 -2.93412 0.786849 3.03113 -9.79774
3.14 -2.92609 0.819021 3.14663 -9.79774
3.15 -2.91773 0.85242 3.26664 -9.79774
3.16 -2.90904 0.887092 3.39129 -9.79774
3.17 -2.89999 0.923088 3.52073 -9.79774
3.18 -2.89057 0.960458 3.65511 -9.79774
3.19 -2.88077 0.999254 3.79458 -9.79774
3.2 -2.87058 1.03953 3.9393 -9.79774
3.21 -2.85998 1.08134 4.0894 -9.79774
3.22 -2.84895 1.12475 4.24505 -9.79774
3.23 -2.83748 1.1698 4.40639 -9.79774
3.24 -2.82555 1.21657 4.57357 -9.79774
3.25 -2.81314 1.2651 4.74674 -9.79774
3.26 -2.80024 1.31548 4.92604 -9.79774
3.27 -2.78682 1.36775 5.11159 -9.79774
3.28 -2.77288 1.42199 5.30354 -9.79774
3.29 -2.75838 1.47826 5.502 -9.79774
3.3 -2.74331 1.53664 5.70707 -9.79774
3.31 -2.72764 1.59718 5.91886 -9.79774
3.32 -2.71135 1.65997 6.13745 -9.79774
3.33 -2.69443 1.72507 6.36289 -9.79774
3.34 -2.67684 1.79256 6.59523 -9.79774
3.35 -2.65857 1.8625 6.83448 -9.79774
3.36 -2.63959 1.93497 7.08064 -9.79774
3.37 -2.61986 2.01003 7.33366 -9.79774
3.38 -2.59938 2.08777 7.59346 -9.79774
3.39 -2.5781 2.16825 7.85992 -9.79774
3.4 -2.556 2.25154 8.13286 -9.79774
3.41 -2.53306 2.33771 8.41206 -9.79774
3.42 -2.50924 2.42682 8.69724 -9.79774
3.43 -2.48451 2.51892 8.98804 -9.79774
3.44 -2.45885 2.61408 9.28404 -9.79774
3.45 -2.43222 2.71236 9.58473 -9.79774
3.46 -2.40459 2.81378 9.88951 -9.79774
3.47 -2.37593 2.9184 10.1977 -9.79774
3.48 -2.34621 3.02624 10.5084 -9.79774
3.49 -2.3154 3.13733 10.8208 -9.79774
3.5 -2.28346 3.25168 11.1337 -9.79774
3.51 -2.25035 3.36928 11.4461 -9.79774
3.52 -2.21606 3.49013 11.7564 -9.79774
3.53 -2.18054 3.61419 12.0633 -9.79774
3.54 -2.14376 3.74143 12.3649 -9.79774
3.55 -2.1057 3.87177 12.6596 -9.79774
3.56 -2.06632 4.00514 12.9451 -9.79774
3.57 -2.02559 4.14142 13.2193 -9.79774
3.58 -1.98348 4.28049 13.4796 -9.79774
3.59 -1.93997 4.42219 13.7236 -9.79774
3.6 -1.89503 4.56633 13.9483 -9.79774
3.61 -1.84864 4.7127 14.1507 -9.79774
3.62 -1.80077 4.86105 14.3276 -9.79774
3.63 -1.75141 5.01109 14.4756 -9.79774
3.64 -1.70054 5.16251 14.5913 -9.79774
3.65 -1.64816 5.31496 14.671 -9.79774
3.66 -1.59424 5.46802 14.711 -9.79774
3.67 -1.53879 5.62128 14.7075 -9.79774
3.68 -1.48182 5.77426 14.6568 -9.79774
3.69 -1.42331 5.92646 14.5553 -9.79774
3.7 -1.36329 6.07731 14.3993 -9.79774
3.71 -1.30177 6.22624 14.1857 -9.79774
3.72 -1.23878 6.37263 13.9113 -9.79774
3.73 -1.17433 6.51584 13.5736 -9.79774
3.74 -1.10847 6.65519 13.1702 -9.79774
3.75 -1.04124 6.78999 12.6995 -9.79774
3.76 -0.972689 6.91953 12.1605 -9.79774
3.77 -0.902871 7.04309 11.5529 -9.79774
3.78 -0.83185 7.15997 10.877 -9.79774
3.79 -0.759696 7.26946 10.1342 -9.79774
3.8 -0.686488 7.37088 9.32672 -9.79774
3.81 -0.612308 7.46356 8.45756 -9.79774
3.82 -0.537248 7.54688 7.53074 -9.79774
3.83 -0.461403 7.62026 6.55119 -9.79774
3.84 -0.384877 7.6832 5.52468 -9.79774
3.85 -0.307776 7.73522 4.45776 -9.79774
3.86 -0.23021 7.77595 3.3577 -9.79774
3.87 -0.152295 7.80509 2.23238 -9.79774
3.88 -0.0741481 7.8224 1.09009 -9.79774
3.89 0.00411268 7.82777 -0.060518 -9.79774
3.9 0.0823672 7.82114 -1.21066 -9.79774
3.91 0.160496 7.80258 -2.35157 -9.79774
3.92 0.238379 7.77221 -3.47463 -9.79774
3.93 0.315901 7.73028 -4.57156 -9.79774
3.94 0.392947 7.67709 -5.63456 -9.79774
3.95 0.469407 7.61304 -6.65644 -9.79774
3.96 0.545173 7.53858 -7.6307 -9.79774
3.97 0.620146 7.45425 -8.55168 -9.79774
3.98 0.694227 7.36062 -9.41454 -9.79774
3.99 0.767329 7.25833 -10.2154 -9.79774
4 0.839367 7.14803 -10.9512 -9.79774
4.01 0.910265 7.03041 -11.6199 -9.79774
4.02 0.979953 6.90618 -12.2204 -9.79774
4.03 1.04837 6.77606 -12.7522 -9.79774
4.04 1.11546 6.64075 -13.2157 -9.79774
4.05 1.18117 6.50096 -13.6121 -9.79774
4.06 1.24546 6.35739 -13.9431 -9.79774
4.07 1.30831 6.2107 -14.211 -9.79774
4.08 1.36967 6.06154 -14.4184 -9.79774
4.09 1.42953 5.91052 -14.5684 -9.79774
4.1 1.48788 5.75822 -14.6644 -9.79774
4.11 1.54469 5.60518 -14.71 -9.79774
4.12 1.59998 5.45192 -14.7087 -9.79774
4.13 1.65373 5.2989 -14.6644 -9.79774
4.14 1.70596 5.14655 -14.5808 -9.79774
4.15 1.75667 4.99526 -14.4615 -9.79774
4.16 1.80587 4.84538 -14.3103 -9.79774
4.17 1.85358 4.69722 -14.1306 -9.79774
4.18 1.89982 4.55108 -13.9257 -9.79774
4.19 1.94461 4.40718 -13.6988 -9.79774
4.2 1.98797 4.26575 -13.453 -9.79774
4.21 2.02993 4.12697 -13.191 -9.79774
4.22 2.07052 3.99099 -12.9156 -9.79774
4.23 2.10976 3.85793 -12.629 -9.79774
4.24 2.14769 3.72791 -12.3335 -9.79774
4.25 2.18433 3.60101 -12.0312 -9.79774
4.26 2.21972 3.47728 -11.724 -9.79774
4.27 2.25389 3.35677 -11.4133 -9.79774
4.28 2.28687 3.23951 -11.1009 -9.79774
4.29 2.31869 3.1255 -10.7879 -9.79774
4.3 2.34939 3.01476 -10.4757 -9.79774
4.31 2.37899 2.90725 -10.1652 -9.79774
4.32 2.40754 2.80297 -9.85731 -9.79774
4.33 2.43506 2.70188 -9.55293 -9.79774
4.34 2.46159 2.60394 -9.25271 -9.79774
4.35 2.48715 2.5091 -8.95723 -9.79774
4.36 2.51178 2.41731 -8.667 -9.79774
4.37 2.53551 2.32852 -8.38243 -9.79774
4.38 2.55836 2.24266 -8.10388 -9.79774
4.39 2.58037 2.15967 -7.83161 -9.79774
4.4 2.60157 2.07948 -7.56585 -9.79774
4.41 2.62197 2.00202 -7.30675 -9.79774
4.42 2.64162 1.92723 -7.05445 -9.79774
4.43 2.66052 1.85503 -6.80902 -9.79774
4.44 2.67872 1.78535 -6.57049 -9.79774
4.45 2.69624 1.71812 -6.33887 -9.79774
4.46 2.71309 1.65327 -6.11416 -9.79774
4.47 2.72931 1.59072 -5.89629 -9.79774
4.48 2.74492 1.5304 -5.68521 -9.79774
4.49 2.75993 1.47225 -5.48083 -9.79774
4.5 2.77437 1.4162 -5.28307 -9.79774
4.51 2.78826 1.36217 -5.0918 -9.79774
4.52 2.80162 1.3101 -4.9069 -9.79774
4.53 2.81447 1.25992 -4.72826 -9.79774
4.54 2.82682 1.21157 -4.55573 -9.79774
4.55 2.8387 1.16499 -4.38917 -9.79774
4.56 2.85013 1.12011 -4.22843 -9.79774
4.57 2.86111 1.07687 -4.07337 -9.79774
4.58 2.87167 1.03523 -3.92384 -9.79774
4.59 2.88182 0.995109 -3.77969 -9.79774
4.6 2.89158 0.956465 -3.64076 -9.79774
4.61 2.90096 0.919242 -3.5069 -9.79774
4.62 2.90997 0.883388 -3.37797 -9.79774
4.63 2.91863 0.848851 -3.25381 -9.79774
4.64 2.92695 0.815584 -3.13429 -9.79774
4.65 2.93494 0.783538 -3.01925 -9.79774
4.66 2.94262 0.752668 -2.90855 -9.79774
4.67 2.95 0.722929 -2.80206 -9.79774
4.68 2.95709 0.694277 -2.69964 -9.79774
4.69 2.96389 0.666672 -2.60116 -9.79774
4.7 2.97042 0.640073 -2.50649 -9.79774
4.71 2.97669 0.614441 -2.4155 -9.79774
4.72 2.98271 0.589738 -2.32807 -9.79774
4.73 2.98849 0.565928 -2.24408 -9.79774
4.74 2.99404 0.542975 -2.16343 -9.79774
4.75 2.99935 0.520845 -2.08599 -9.79774
4.76 3.00446 0.499506 -2.01166 -9.79774
4.77 3.00935 0.478925 -1.94033 -9.79774
4.78 3.01404 0.459072 -1.87191 -9.79774
4.79 3.01853 0.439917 -1.80629 -9.79774
4.8 3.02284 0.421432 -1.74339 -9.79774
4.81 3.02696 0.403588 -1.68311 -9.79774
4.82 3.03091 0.386358 -1.62536 -9.79774
4.83 3.03469 0.369718 -1.57007 -9.79774
4.84 3.03831 0.35364 -1.51715 -9.79774
4.85 3.04177 0.338102 -1.46652 -9.79774
4.86 3.04507 0.32308 -1.41812 -9.79774
4.87 3.04823 0.308551 -1.37186 -9.79774
4.88 3.05124 0.294492 -1.32768 -9.79774
4.89 3.05412 0.280884 -1.28552 -9.79774
4.9 3.05686 0.267704 -1.24531 -9.79774
4.91 3.05948 0.254933 -1.207 -9.79774
4.92 3.06196 0.242552 -1.17052 -9.79774
4.93 3.06433 0.230541 -1.13583 -9.79774
4.94 3.06657 0.218883 -1.10286 -9.79774
4.95 3.06871 0.207559 -1.07157 -9.79774
4.96 3.07073 0.196553 -1.04192 -9.79774
4.97 3.07264 0.185847 -1.01386 -9.79774
4.98 3.07444 0.175425 -0.987343 -9.79774
4.99 3.07615 0.165272 -0.962335 -9.79774
5 3.07775 0.155371 -0.938795 -9.79774
